# Efermi (eV) : 6.246298
# (SCF 12x12x8 G-cntrd k points)
"kaxis (pi/a or pi/c unit)" E1 E2 E3 E4 E5 E6 E7 E8 E9 E10 E11 E12
0.00000 -6.24460 -1.07180 -1.07180 -0.41760 -0.41760 -0.19330 3.91990 6.35500 10.29990 10.82630 10.82630 12.80250
0.01166 -6.24420 -1.07340 -1.07230 -0.41930 -0.41760 -0.19340 3.92170 6.35650 10.29850 10.82350 10.82730 12.80300
0.02333 -6.24300 -1.07830 -1.07370 -0.42460 -0.41770 -0.19380 3.92690 6.36100 10.29440 10.81490 10.83020 12.80430
0.03499 -6.24110 -1.08640 -1.07600 -0.43330 -0.41780 -0.19440 3.93570 6.36840 10.28750 10.80080 10.83500 12.80520
0.04665 -6.23830 -1.09770 -1.07930 -0.44550 -0.41800 -0.19520 3.94780 6.37880 10.27780 10.78140 10.84170 12.80220
0.05832 -6.23480 -1.11210 -1.08350 -0.46090 -0.41830 -0.19640 3.96330 6.39200 10.26540 10.75670 10.85030 12.79300
0.06998 -6.23050 -1.12970 -1.08860 -0.47950 -0.41860 -0.19780 3.98210 6.40800 10.25030 10.72710 10.86090 12.77990
0.08165 -6.22540 -1.15040 -1.09450 -0.50130 -0.41910 -0.19950 4.00390 6.42690 10.23250 10.69290 10.87330 12.76400
0.09331 -6.21960 -1.17420 -1.10130 -0.52600 -0.41960 -0.20160 4.02890 6.44840 10.21190 10.65450 10.88770 12.74550
0.10497 -6.21300 -1.20090 -1.10900 -0.55350 -0.42020 -0.20390 4.05660 6.47250 10.18860 10.61210 10.90390 12.72470
0.11664 -6.20560 -1.23050 -1.11740 -0.58370 -0.42100 -0.20650 4.08710 6.49910 10.16270 10.56630 10.92200 12.70180
0.12830 -6.19740 -1.26310 -1.12670 -0.61640 -0.42190 -0.20950 4.12030 6.52810 10.13410 10.51730 10.94190 12.67690
0.13996 -6.18850 -1.29840 -1.13670 -0.65150 -0.42300 -0.21280 4.15580 6.55940 10.10280 10.46550 10.96360 12.65030
0.15163 -6.17870 -1.33630 -1.14740 -0.68880 -0.42420 -0.21650 4.19360 6.59290 10.06890 10.41140 10.98720 12.62210
0.16329 -6.16820 -1.37690 -1.15880 -0.72820 -0.42560 -0.22040 4.23350 6.62830 10.03230 10.35540 11.01260 12.59280
0.17495 -6.15700 -1.42010 -1.17090 -0.76950 -0.42720 -0.22470 4.27540 6.66570 9.99300 10.29790 11.03970 12.56240
0.18662 -6.14500 -1.46560 -1.18360 -0.81260 -0.42900 -0.22940 4.31900 6.70470 9.95100 10.23930 11.06860 12.53120
0.19828 -6.13220 -1.51340 -1.19690 -0.85740 -0.43100 -0.23440 4.36430 6.74530 9.90620 10.18010 11.09930 12.49960
0.20995 -6.11860 -1.56350 -1.21080 -0.90370 -0.43330 -0.23980 4.41110 6.78720 9.85860 10.12070 11.13160 12.46770
0.22161 -6.10430 -1.61560 -1.22520 -0.95140 -0.43570 -0.24550 4.45910 6.83040 9.80800 10.06170 11.16550 12.43560
0.23327 -6.08930 -1.66970 -1.24020 -1.00040 -0.43840 -0.25160 4.50840 6.87450 9.75450 10.00350 11.20110 12.40370
0.24494 -6.07340 -1.72580 -1.25560 -1.05060 -0.44140 -0.25800 4.55870 6.91930 9.69790 9.94660 11.23830 12.37200
0.25660 -6.05690 -1.78360 -1.27140 -1.10190 -0.44460 -0.26490 4.60990 6.96470 9.63840 9.89120 11.27700 12.34080
0.26826 -6.03960 -1.84300 -1.28770 -1.15410 -0.44800 -0.27210 4.66190 7.01030 9.57600 9.83770 11.31710 12.31000
0.27993 -6.02150 -1.90400 -1.30440 -1.20730 -0.45170 -0.27970 4.71450 7.05590 9.51100 9.78640 11.35870 12.27990
0.29159 -6.00270 -1.96640 -1.32140 -1.26130 -0.45570 -0.28780 4.76770 7.10120 9.44380 9.73730 11.40170 12.25050
0.30325 -5.98320 -2.03020 -1.33880 -1.31610 -0.45990 -0.29620 4.82120 7.14600 9.37450 9.69070 11.44580 12.22190
0.31492 -5.96290 -2.09510 -1.37150 -1.35650 -0.46430 -0.30510 4.87500 7.18980 9.30350 9.64670 11.49120 12.19410
0.32658 -5.94190 -2.16120 -1.42750 -1.37450 -0.46910 -0.31440 4.92890 7.23230 9.23110 9.60550 11.53750 12.16710
0.33825 -5.92020 -2.22830 -1.48410 -1.39270 -0.47400 -0.32410 4.98280 7.27310 9.15750 9.56740 11.58470 12.14100
0.34991 -5.89780 -2.29630 -1.54120 -1.41110 -0.47930 -0.33430 5.03670 7.31190 9.08310 9.53270 11.63250 12.11580
0.36157 -5.87460 -2.36520 -1.59870 -1.42980 -0.48470 -0.34500 5.09040 7.34820 9.00790 9.50170 11.68060 12.09140
0.37324 -5.85080 -2.43480 -1.65650 -1.44860 -0.49040 -0.35610 5.14370 7.38160 8.93230 9.47470 11.72850 12.06680
0.38490 -5.82620 -2.50500 -1.71470 -1.46760 -0.49630 -0.36770 5.19660 7.41170 8.85640 9.45210 11.77570 12.02010
0.39656 -5.80100 -2.57570 -1.77310 -1.48680 -0.50250 -0.37980 5.24900 7.43820 8.78040 9.43410 11.82110 11.96210
0.40823 -5.77500 -2.64700 -1.83180 -1.50600 -0.50890 -0.39240 5.30060 7.46070 8.70440 9.42110 11.86340 11.90450
0.41989 -5.74840 -2.71860 -1.89070 -1.52530 -0.51540 -0.40550 5.35150 7.47890 8.62870 9.41320 11.84770 11.90020
0.43155 -5.72110 -2.79050 -1.94970 -1.54470 -0.52220 -0.41910 5.40150 7.49250 8.55340 9.41070 11.79210 11.92880
0.44322 -5.69310 -2.86270 -2.00870 -1.56420 -0.52920 -0.43320 5.45040 7.50150 8.47870 9.41340 11.73770 11.94610
0.45488 -5.66440 -2.93500 -2.06780 -1.58370 -0.53630 -0.44790 5.49810 7.50570 8.40490 9.42140 11.68460 11.93210
0.46655 -5.63510 -3.00740 -2.12690 -1.60320 -0.54360 -0.46320 5.54450 7.50520 8.33220 9.43450 11.63310 11.91620
0.47821 -5.60520 -3.07990 -2.18600 -1.62270 -0.55110 -0.47900 5.58940 7.50000 8.26090 9.45230 11.58320 11.90110
0.48987 -5.57460 -3.15220 -2.24500 -1.64210 -0.55870 -0.49540 5.63270 7.49030 8.19130 9.47450 11.53510 11.88690
0.50154 -5.54330 -3.22450 -2.30390 -1.66150 -0.56650 -0.51240 5.67420 7.47600 8.12380 9.50060 11.48910 11.86470
0.51320 -5.51150 -3.29670 -2.36270 -1.68090 -0.57430 -0.52990 5.71380 7.45740 8.05890 9.53010 11.44520 11.83040
0.52486 -5.47900 -3.36860 -2.42120 -1.70020 -0.58230 -0.54810 5.75130 7.43450 7.99710 9.56240 11.40370 11.79420
0.53653 -5.44590 -3.44020 -2.47960 -1.71940 -0.59040 -0.56680 5.78660 7.40720 7.93890 9.59700 11.36480 11.75680
0.54819 -5.41220 -3.51140 -2.53770 -1.73840 -0.59860 -0.58620 5.81940 7.37560 7.88490 9.63330 11.32870 11.71870
0.55985 -5.37800 -3.58230 -2.59540 -1.75740 -0.60690 -0.60620 5.84970 7.33960 7.83570 9.67060 11.29570 11.68030
0.57152 -5.34310 -3.65270 -2.65290 -1.77620 -0.62690 -0.61520 5.87720 7.29950 7.79150 9.70830 11.26600 11.64180
0.58318 -5.30770 -3.72260 -2.71000 -1.79480 -0.64820 -0.62360 5.90190 7.25530 7.75260 9.74580 11.24010 11.60340
0.59485 -5.27180 -3.79200 -2.76670 -1.81330 -0.67010 -0.63200 5.92360 7.20760 7.71910 9.78240 11.21810 11.56520
0.60651 -5.23530 -3.86070 -2.82300 -1.83150 -0.69270 -0.64050 5.94220 7.15680 7.69070 9.81760 11.20050 11.52730
0.61817 -5.19830 -3.92880 -2.87880 -1.84960 -0.71590 -0.64890 5.95760 7.10340 7.66730 9.85080 11.18740 11.48990
0.62984 -5.16080 -3.99620 -2.93410 -1.86750 -0.73980 -0.65740 5.96990 7.04810 7.64850 9.88160 11.17930 11.45290
0.64150 -5.12280 -4.06280 -2.98890 -1.88510 -0.76430 -0.66590 5.97910 6.99140 7.63390 9.90940 11.17630 11.41650
0.65316 -5.08440 -4.12870 -3.04310 -1.90250 -0.78950 -0.67440 5.98510 6.93390 7.62310 9.93390 11.17860 11.38070
0.66483 -5.04550 -4.19370 -3.09670 -1.91970 -0.81540 -0.68280 5.98810 6.87580 7.61590 9.95490 11.18620 11.34540
0.67649 -5.00610 -4.25780 -3.14970 -1.93660 -0.84190 -0.69120 5.98820 6.81750 7.61180 9.97230 11.19900 11.31080
0.68815 -4.96640 -4.32090 -3.20210 -1.95320 -0.86900 -0.69950 5.98550 6.75940 7.61060 9.98620 11.21670 11.27690
0.69982 -4.92630 -4.38300 -3.25370 -1.96960 -0.89680 -0.70780 5.98030 6.70160 7.61190 9.99670 11.23910 11.24370
0.71148 -4.88580 -4.44410 -3.30460 -1.98560 -0.92520 -0.71610 5.97270 6.64430 7.61540 10.00410 11.21120 11.26570
0.72315 -4.84510 -4.50400 -3.35470 -2.00140 -0.95420 -0.72420 5.96300 6.58780 7.62090 10.00870 11.17940 11.29590
0.73481 -4.80440 -4.56260 -3.40400 -2.01680 -0.98390 -0.73230 5.95130 6.53210 7.62800 10.01090 11.14840 11.32930
0.74647 -4.76400 -4.61930 -3.45250 -2.03200 -1.01410 -0.74020 5.93800 6.47740 7.63660 10.01110 11.11810 11.36510
0.75814 -4.72800 -4.67020 -3.50010 -2.04680 -1.04500 -0.74800 5.92330 6.42370 7.64620 10.00970 11.08860 11.40270
0.76980 -4.74150 -4.67010 -3.54680 -2.06120 -1.07640 -0.75580 5.90720 6.37110 7.65670 10.00700 11.05990 11.44150
0.78146 -4.79190 -4.63170 -3.59260 -2.07530 -1.10830 -0.76330 5.89020 6.31980 7.66800 10.00330 11.03200 11.48080
0.79313 -4.84390 -4.59020 -3.63730 -2.08910 -1.14070 -0.77080 5.87230 6.26970 7.67970 9.99900 11.00480 11.51980
0.80479 -4.89510 -4.54800 -3.68110 -2.10250 -1.17370 -0.77810 5.85380 6.22090 7.69160 9.99430 10.97850 11.55770
0.81645 -4.94520 -4.50560 -3.72370 -2.11550 -1.20710 -0.78520 5.83470 6.17350 7.70380 9.98940 10.95300 11.59370
0.82812 -4.99400 -4.46300 -3.76520 -2.12810 -1.24090 -0.79220 5.81540 6.12740 7.71590 9.98450 10.92830 11.62680
0.83978 -5.04150 -4.42040 -3.80560 -2.14040 -1.27510 -0.79900 5.79580 6.08290 7.72790 9.97970 10.90450 11.65640
0.85145 -5.08750 -4.37800 -3.84460 -2.15230 -1.30960 -0.80570 5.77620 6.03970 7.73960 9.97510 10.88140 11.68210
0.86311 -5.13200 -4.33570 -3.88230 -2.16370 -1.34450 -0.81210 5.75660 5.99810 7.75100 9.97090 10.85930 11.70390
0.87477 -5.17510 -4.29400 -3.91850 -2.17480 -1.37950 -0.81830 5.73720 5.95800 7.76210 9.96700 10.83790 11.72250
0.88644 -5.21660 -4.25300 -3.95280 -2.18540 -1.41480 -0.82440 5.71800 5.91940 7.77270 9.96360 10.81740 11.73840
0.89810 -5.25650 -4.21340 -3.98460 -2.19570 -1.45010 -0.83020 5.69920 5.88240 7.78280 9.96060 10.79780 11.75230
0.90976 -5.29480 -4.17680 -4.01250 -2.20550 -1.48550 -0.83580 5.68080 5.84700 7.79230 9.95810 10.77900 11.76480
0.92143 -5.33160 -4.14760 -4.03210 -2.21490 -1.52090 -0.84120 5.66290 5.81310 7.80140 9.95610 10.76100 11.77620
0.93309 -5.36660 -4.13620 -4.03300 -2.22390 -1.55610 -0.84640 5.64550 5.78090 7.80980 9.95450 10.74390 11.78670
0.94475 -5.40000 -4.14620 -4.01160 -2.23240 -1.59110 -0.85140 5.62880 5.75020 7.81770 9.95330 10.72770 11.79670
0.95642 -5.43180 -4.16630 -3.97950 -2.24050 -1.62580 -0.85610 5.61270 5.72120 7.82500 9.95260 10.71240 11.80610
0.96808 -5.46180 -4.18900 -3.94400 -2.24820 -1.66000 -0.86050 5.59740 5.69380 7.83170 9.95220 10.69790 11.81510
0.97975 -5.49010 -4.21200 -3.90780 -2.25540 -1.69360 -0.86470 5.58280 5.66810 7.83780 9.95210 10.68420 11.82360
0.99141 -5.51660 -4.23430 -3.87180 -2.26210 -1.72650 -0.86870 5.56890 5.64390 7.84350 9.95230 10.67150 11.83180
1.00307 -5.54140 -4.25560 -3.83660 -2.26840 -1.75860 -0.87240 5.55600 5.62150 7.84860 9.95270 10.65960 11.83960
1.01474 -5.56440 -4.27560 -3.80240 -2.27430 -1.78950 -0.87590 5.54380 5.60070 7.85320 9.95340 10.64860 11.84700
1.02640 -5.58560 -4.29420 -3.76970 -2.27970 -1.81920 -0.87900 5.53260 5.58150 7.85730 9.95410 10.63850 11.85400
1.03806 -5.60500 -4.31140 -3.73860 -2.28460 -1.84750 -0.88200 5.52220 5.56400 7.86100 9.95500 10.62920 11.86050
1.04973 -5.62260 -4.32700 -3.70940 -2.28910 -1.87400 -0.88460 5.51280 5.54810 7.86420 9.95600 10.62080 11.86650
1.06139 -5.63830 -4.34110 -3.68240 -2.29310 -1.89870 -0.88700 5.50440 5.53390 7.86710 9.95700 10.61340 11.87200
1.07306 -5.65230 -4.35360 -3.65770 -2.29660 -1.92130 -0.88910 5.49690 5.52140 7.86950 9.95790 10.60670 11.87690
1.08472 -5.66430 -4.36440 -3.63570 -2.29970 -1.94150 -0.89090 5.49040 5.51050 7.87160 9.95880 10.60100 11.88130
1.09638 -5.67450 -4.37370 -3.61660 -2.30230 -1.95900 -0.89250 5.48490 5.50120 7.87330 9.95960 10.59610 11.88500
1.10805 -5.68290 -4.38120 -3.60060 -2.30440 -1.97370 -0.89370 5.48050 5.49360 7.87470 9.96040 10.59220 11.88810
1.11971 -5.68940 -4.38710 -3.58790 -2.30610 -1.98540 -0.89470 5.47700 5.48760 7.87580 9.96090 10.58910 11.89060
1.13137 -5.69410 -4.39140 -3.57870 -2.30730 -1.99390 -0.89540 5.47460 5.48330 7.87650 9.96140 10.58690 11.89240
1.14304 -5.69690 -4.39390 -3.57310 -2.30800 -1.99910 -0.89590 5.47320 5.48070 7.87700 9.96160 10.58550 11.89340
1.15470 -5.69780 -4.39470 -3.57130 -2.30820 -2.00080 -0.89600 5.47270 5.47980 7.87710 9.96170 10.58510 11.89380
