# Efermi (eV) : -1.044522
# (SCF 12x12x1 G-cntrd k points)
"k_distance (normalized)" E1 E2 E3 E4 E5 E6 E7 E8 E9 E10 E11
0.00000 -5.84138 -2.42858 -2.42858 -2.21848 -1.40128 -1.40128 -0.63618 2.69952 2.69962 2.95932 2.95932
0.01361 -5.83888 -2.43388 -2.42648 -2.22578 -1.40478 -1.39668 -0.63648 2.69212 2.70282 2.94742 2.95602
0.02721 -5.83138 -2.44998 -2.42038 -2.24728 -1.41528 -1.38348 -0.63738 2.67022 2.71252 2.91282 2.94612
0.04082 -5.81898 -2.47648 -2.41018 -2.28118 -1.43288 -1.36328 -0.63908 2.63522 2.72862 2.85812 2.92972
0.05442 -5.80178 -2.51308 -2.39608 -2.32558 -1.45788 -1.33798 -0.64168 2.58882 2.75082 2.78702 2.90702
0.06803 -5.77978 -2.55928 -2.37808 -2.37798 -1.49038 -1.30968 -0.64548 2.53352 2.70332 2.77882 2.87792
0.08163 -5.75318 -2.61428 -2.43698 -2.35618 -1.53058 -1.28018 -0.65068 2.47192 2.61062 2.81232 2.84282
0.09524 -5.72208 -2.67758 -2.50068 -2.33078 -1.57888 -1.25078 -0.65778 2.40662 2.51222 2.80202 2.85082
0.10884 -5.68678 -2.74838 -2.56768 -2.30188 -1.63538 -1.22258 -0.66708 2.34022 2.41082 2.75582 2.89392
0.12245 -5.64738 -2.82568 -2.63718 -2.26988 -1.70028 -1.19658 -0.67898 2.27502 2.30892 2.70462 2.94092
0.13605 -5.60418 -2.90878 -2.70808 -2.23508 -1.77338 -1.17318 -0.69388 2.20832 2.21302 2.64922 2.99132
0.14966 -5.55758 -2.99658 -2.77998 -2.19778 -1.85468 -1.15298 -0.71238 2.11062 2.15592 2.59012 3.04452
0.16327 -5.50778 -3.08828 -2.85208 -2.15848 -1.94388 -1.13638 -0.73448 2.01732 2.10502 2.52822 3.09972
0.17687 -5.45538 -3.18288 -2.92408 -2.11788 -2.04038 -1.12348 -0.76058 1.92932 2.06122 2.46462 3.15642
0.19048 -5.40088 -3.27948 -2.99558 -2.14358 -2.07678 -1.11478 -0.79048 1.84742 2.02522 2.40032 3.21382
0.20408 -5.34478 -3.37698 -3.06648 -2.25238 -2.03618 -1.11018 -0.82378 1.77182 1.99722 2.33672 3.27122
0.21769 -5.28778 -3.47428 -3.13668 -2.36598 -1.99728 -1.10978 -0.85968 1.70252 1.97742 2.27522 3.32802
0.23129 -5.23088 -3.57018 -3.20618 -2.48298 -1.96188 -1.11388 -0.89708 1.63942 1.96552 2.21722 3.38352
0.24490 -5.17508 -3.66338 -3.27548 -2.60178 -1.93188 -1.12238 -0.93408 1.58202 1.96122 2.16442 3.43722
0.25850 -5.12188 -3.75218 -3.34498 -2.72088 -1.90988 -1.13528 -0.96848 1.52982 1.96422 2.11802 3.48852
0.27211 -5.07278 -3.83498 -3.41578 -2.83788 -1.89848 -1.15258 -0.99778 1.48242 1.97382 2.07912 3.53702
0.28571 -5.03008 -3.90928 -3.48918 -2.95058 -1.90018 -1.17428 -1.01958 1.44002 1.98942 2.04832 3.58212
0.29932 -4.99618 -3.97268 -3.56698 -3.05598 -1.91678 -1.20028 -1.03228 1.40292 2.01042 2.02582 3.62372
0.31293 -4.97388 -4.02248 -3.65088 -3.15148 -1.94888 -1.23048 -1.03538 1.37182 2.01112 2.03602 3.66162
0.32653 -4.96508 -4.05648 -3.74228 -3.23498 -1.99538 -1.26478 -1.03008 1.34792 2.00352 2.06542 3.69572
0.34014 -4.97098 -4.07388 -3.84088 -3.30558 -2.05448 -1.30298 -1.01818 1.33222 2.00192 2.09802 3.72612
0.35374 -4.99038 -4.07568 -3.94568 -3.36398 -2.12418 -1.34488 -1.00168 1.32592 2.00512 2.13272 3.75292
0.36735 -5.02088 -4.06458 -4.05458 -3.41128 -2.20238 -1.39028 -0.98228 1.32962 2.01202 2.16872 3.77672
0.38095 -5.05888 -4.16548 -4.04388 -3.44908 -2.28728 -1.43898 -0.96138 1.34362 2.02142 2.20512 3.79792
0.39456 -5.10118 -4.27668 -4.01718 -3.47868 -2.37758 -1.49068 -0.93958 1.36762 2.03262 2.24092 3.81712
0.40816 -5.14478 -4.38658 -3.98728 -3.50108 -2.47218 -1.54508 -0.91688 1.40042 2.04502 2.27532 3.83522
0.42177 -5.18728 -4.49398 -3.95668 -3.51708 -2.57028 -1.60188 -0.89308 1.44032 2.05862 2.30712 3.85292
0.43537 -5.22688 -4.59808 -3.92698 -3.52728 -2.67108 -1.66058 -0.86768 1.48482 2.07402 2.33562 3.87112
0.44898 -5.26218 -4.69798 -3.89948 -3.53228 -2.77398 -1.72088 -0.84018 1.53002 2.09302 2.36002 3.89062
0.46259 -5.29178 -4.79318 -3.87528 -3.53238 -2.87828 -1.78248 -0.80988 1.57142 2.11812 2.37952 3.91202
0.47619 -5.31508 -4.88308 -3.85518 -3.52798 -2.98348 -1.84478 -0.77648 1.60392 2.15252 2.39382 3.93572
0.48980 -5.33098 -4.96728 -3.83968 -3.51968 -3.08878 -1.90738 -0.73988 1.62342 2.19862 2.40272 3.96212
0.50340 -5.33918 -5.04548 -3.82958 -3.50758 -3.19288 -1.96968 -0.70018 1.62792 2.25692 2.40622 3.99112
0.51701 -5.33918 -5.11748 -3.82598 -3.49248 -3.29448 -2.03128 -0.65758 1.61802 2.32562 2.40472 4.02242
0.53061 -5.33048 -5.18298 -3.83078 -3.47458 -3.39088 -2.09138 -0.61268 1.59612 2.39862 2.40162 4.05542
0.54422 -5.31318 -5.24188 -3.84708 -3.47818 -3.45468 -2.14958 -0.56638 1.56492 2.38882 2.48122 4.08952
0.55782 -5.29408 -5.28718 -3.87968 -3.55088 -3.43338 -2.20498 -0.51968 1.52722 2.37612 2.56112 4.12382
0.57143 -5.33958 -5.25268 -3.93178 -3.60458 -3.41148 -2.25668 -0.47368 1.48582 2.36132 2.63822 4.15732
0.58503 -5.37828 -5.21028 -4.00128 -3.64038 -3.38978 -2.30408 -0.42988 1.44332 2.34552 2.70992 4.18912
0.59864 -5.41048 -5.16098 -4.08128 -3.66338 -3.36918 -2.34598 -0.38958 1.40222 2.32972 2.77402 4.21812
0.61224 -5.43618 -5.10658 -4.16468 -3.67888 -3.35088 -2.38158 -0.35438 1.36492 2.31472 2.82832 4.24352
0.62585 -5.45558 -5.05008 -4.24488 -3.68978 -3.33578 -2.40998 -0.32568 1.33352 2.30162 2.87142 4.26452
0.63946 -5.46898 -4.99688 -4.31508 -3.69758 -3.32458 -2.43048 -0.30458 1.30982 2.29122 2.90242 4.28022
0.65306 -5.47678 -4.95618 -4.36548 -3.70258 -3.31788 -2.44268 -0.29178 1.29522 2.28442 2.92082 4.28992
0.66667 -5.47928 -4.94028 -4.38438 -3.70448 -3.31568 -2.44658 -0.28758 1.29032 2.28192 2.92682 4.29332
0.66667 -5.47928 -4.94028 -4.38438 -3.70448 -3.31568 -2.44658 -0.28758 1.29032 2.28192 2.92682 4.29332
0.67347 -5.47868 -4.94448 -4.37958 -3.70388 -3.31618 -2.44568 -0.28858 1.29152 2.28262 2.92542 4.29242
0.68027 -5.47688 -4.95688 -4.36538 -3.70198 -3.31768 -2.44288 -0.29158 1.29512 2.28462 2.92112 4.28982
0.68707 -5.47408 -4.97648 -4.34338 -3.69848 -3.31998 -2.43848 -0.29638 1.30092 2.28812 2.91422 4.28552
0.69388 -5.47028 -5.00198 -4.31518 -3.69288 -3.32298 -2.43258 -0.30278 1.30892 2.29312 2.90472 4.27942
0.70068 -5.46548 -5.03178 -4.28298 -3.68458 -3.32658 -2.42528 -0.31068 1.31882 2.29982 2.89292 4.27152
0.70748 -5.45978 -5.06478 -4.24848 -3.67308 -3.33058 -2.41678 -0.31988 1.33062 2.30822 2.87892 4.26182
0.71429 -5.45328 -5.10018 -4.21368 -3.65738 -3.33478 -2.40728 -0.33018 1.34392 2.31832 2.86282 4.25032
0.72109 -5.44608 -5.13698 -4.18008 -3.63678 -3.33918 -2.39698 -0.34138 1.35872 2.33032 2.84502 4.23722
0.72789 -5.43828 -5.17488 -4.14908 -3.61038 -3.34348 -2.38608 -0.35328 1.37472 2.34412 2.82552 4.22242
0.73469 -5.42978 -5.21328 -4.12178 -3.57768 -3.34768 -2.37458 -0.36568 1.39172 2.35992 2.80462 4.20592
0.74150 -5.42088 -5.25208 -4.09888 -3.53828 -3.35148 -2.36278 -0.37848 1.40962 2.37772 2.78232 4.18782
0.74830 -5.41158 -5.29078 -4.08048 -3.49228 -3.35488 -2.35078 -0.39148 1.42812 2.39752 2.75892 4.16822
0.75510 -5.40188 -5.32948 -4.06648 -3.44018 -3.35778 -2.33878 -0.40458 1.44702 2.41942 2.73452 4.14712
0.76190 -5.39198 -5.36778 -4.05648 -3.38258 -3.36008 -2.32678 -0.41768 1.46632 2.44342 2.70932 4.12472
0.76871 -5.40568 -5.38188 -4.04968 -3.36158 -3.32018 -2.31498 -0.43058 1.48572 2.46942 2.68352 4.10102
0.77551 -5.44298 -5.37158 -4.04578 -3.36218 -3.25388 -2.30348 -0.44318 1.50522 2.49762 2.65712 4.07612
0.78231 -5.47978 -5.36138 -4.04418 -3.36208 -3.18418 -2.29238 -0.45548 1.52452 2.52792 2.63022 4.05012
0.78912 -5.51578 -5.35118 -4.04448 -3.36088 -3.11168 -2.28168 -0.46748 1.54352 2.56032 2.60322 4.02312
0.79592 -5.55108 -5.34098 -4.04628 -3.35878 -3.03678 -2.27158 -0.47908 1.56222 2.57592 2.59472 3.99522
0.80272 -5.58568 -5.33108 -4.04928 -3.35568 -2.96008 -2.26208 -0.49018 1.58042 2.54872 2.63132 3.96662
0.80952 -5.61928 -5.32128 -4.05328 -3.35158 -2.88188 -2.25318 -0.50088 1.59812 2.52162 2.66982 3.93742
0.81633 -5.65208 -5.31178 -4.05808 -3.34638 -2.80238 -2.24498 -0.51108 1.61502 2.49472 2.71022 3.90772
0.82313 -5.68398 -5.30258 -4.06348 -3.34028 -2.72198 -2.23748 -0.52088 1.63122 2.46812 2.75252 3.87762
0.82993 -5.71488 -5.29368 -4.06938 -3.33308 -2.64088 -2.23078 -0.53038 1.64652 2.44192 2.79662 3.84732
0.83673 -5.74478 -5.28528 -4.07568 -3.32488 -2.55938 -2.22478 -0.53938 1.66092 2.41642 2.84242 3.81702
0.84354 -5.77368 -5.27718 -4.08228 -3.31578 -2.47758 -2.21958 -0.54828 1.67432 2.39152 2.88982 3.78672
0.85034 -5.80148 -5.26948 -4.08908 -3.30578 -2.39578 -2.21528 -0.55678 1.68662 2.36742 2.93852 3.75662
0.85714 -5.82828 -5.26228 -4.09598 -3.29498 -2.31428 -2.21158 -0.56528 1.69792 2.34422 2.98852 3.72692
0.86395 -5.85388 -5.25558 -4.10298 -3.28348 -2.23308 -2.20878 -0.57368 1.70792 2.32192 3.03942 3.69792
0.87075 -5.87848 -5.24918 -4.10998 -3.27128 -2.20668 -2.15248 -0.58208 1.71682 2.30082 3.09112 3.66962
0.87755 -5.90188 -5.24338 -4.11688 -3.25858 -2.20528 -2.07268 -0.59068 1.72442 2.28082 3.14322 3.64252
0.88435 -5.92408 -5.23788 -4.12368 -3.24538 -2.20448 -1.99388 -0.59958 1.73082 2.26202 3.19522 3.61682
0.89116 -5.94518 -5.23298 -4.13028 -3.23178 -2.20448 -1.91618 -0.60878 1.73592 2.24462 3.24642 3.59322
0.89796 -5.96498 -5.22838 -4.13668 -3.21808 -2.20488 -1.83988 -0.61858 1.73992 2.22862 3.29552 3.57272
0.90476 -5.98368 -5.22418 -4.14288 -3.20418 -2.20598 -1.76518 -0.62898 1.74272 2.21392 3.34042 3.55742
0.91156 -6.00108 -5.22048 -4.14888 -3.19038 -2.20738 -1.69218 -0.64028 1.74442 2.20062 3.37682 3.55132
0.91837 -6.01728 -5.21708 -4.15448 -3.17678 -2.20928 -1.62108 -0.65248 1.74522 2.18872 3.39862 3.56002
0.92517 -6.03228 -5.21408 -4.15978 -3.16358 -2.21148 -1.55218 -0.66578 1.74512 2.17812 3.40412 3.58532
0.93197 -6.04588 -5.21138 -4.16468 -3.15078 -2.21388 -1.48548 -0.68028 1.74432 2.16882 3.39882 3.62102
0.93878 -6.05828 -5.20898 -4.16918 -3.13868 -2.21638 -1.42128 -0.69628 1.74292 2.16072 3.38872 3.66072
0.94558 -6.06948 -5.20688 -4.17328 -3.12728 -2.21908 -1.35968 -0.71368 1.74122 2.15372 3.37712 3.70082
0.95238 -6.07928 -5.20518 -4.17698 -3.11688 -2.22158 -1.30098 -0.73268 1.73922 2.14782 3.36562 3.73932
0.95918 -6.08778 -5.20368 -4.18018 -3.10748 -2.22408 -1.24538 -0.75328 1.73712 2.14292 3.35482 3.77482
0.96599 -6.09508 -5.20238 -4.18298 -3.09928 -2.22628 -1.19318 -0.77538 1.73502 2.13882 3.34532 3.80642
0.97279 -6.10098 -5.20138 -4.18518 -3.09248 -2.22828 -1.14478 -0.79888 1.73322 2.13562 3.33722 3.83332
0.97959 -6.10558 -5.20058 -4.18698 -3.08698 -2.22988 -1.10098 -0.82308 1.73162 2.13322 3.33082 3.85502
0.98639 -6.10888 -5.20008 -4.18828 -3.08308 -2.23108 -1.06358 -0.84648 1.73042 2.13152 3.32622 3.87082
0.99320 -6.11088 -5.19978 -4.18898 -3.08068 -2.23178 -1.03608 -0.86538 1.72972 2.13042 3.32342 3.88042
1.00000 -6.11158 -5.19968 -4.18928 -3.07988 -2.23208 -1.02548 -0.87328 1.72952 2.13012 3.32252 3.88372
