# Efermi (eV) : -1.044522
# (SCF 12x12x1 G-cntrd k points)
"k_distance (normalized)" E1 E2 E3 E4 E5 E6 E7 E8 E9 E10 E11
0.00000 -5.84138 -2.42858 -2.42858 -2.21848 -1.40128 -1.40128 -0.63618 2.69952 2.69962 2.95932 2.95932
0.01010 -5.84088 -2.42958 -2.42818 -2.21978 -1.40188 -1.40038 -0.63618 2.69822 2.70012 2.95712 2.95872
0.02020 -5.83948 -2.43248 -2.42708 -2.22388 -1.40378 -1.39788 -0.63638 2.69412 2.70192 2.95052 2.95682
0.03030 -5.83718 -2.43748 -2.42518 -2.23058 -1.40698 -1.39378 -0.63668 2.68732 2.70492 2.93972 2.95382
0.04040 -5.83398 -2.44428 -2.42258 -2.23978 -1.41148 -1.38808 -0.63708 2.67792 2.70912 2.92482 2.94962
0.05051 -5.82988 -2.45318 -2.41918 -2.25138 -1.41718 -1.38118 -0.63758 2.66602 2.71442 2.90612 2.94422
0.06061 -5.82488 -2.46388 -2.41508 -2.26528 -1.42408 -1.37298 -0.63828 2.65182 2.72092 2.88372 2.93772
0.07071 -5.81898 -2.47658 -2.41018 -2.28128 -1.43228 -1.36388 -0.63908 2.63532 2.72842 2.85792 2.93002
0.08081 -5.81218 -2.49108 -2.40458 -2.29918 -1.44158 -1.35398 -0.64008 2.61682 2.73712 2.82902 2.92112
0.09091 -5.80448 -2.50738 -2.39818 -2.31878 -1.45208 -1.34348 -0.64128 2.59652 2.74682 2.79742 2.91122
0.10101 -5.79598 -2.52548 -2.39118 -2.34008 -1.46368 -1.33268 -0.64268 2.57452 2.75762 2.76332 2.90022
0.11111 -5.78658 -2.54528 -2.38338 -2.36278 -1.47638 -1.32168 -0.64428 2.55112 2.72712 2.76932 2.88822
0.12121 -5.77628 -2.56688 -2.38678 -2.37488 -1.49018 -1.31068 -0.64618 2.52652 2.68892 2.78202 2.87522
0.13131 -5.76518 -2.59008 -2.41198 -2.36558 -1.50498 -1.29978 -0.64828 2.50102 2.64912 2.79562 2.86122
0.14141 -5.75318 -2.61478 -2.43828 -2.35568 -1.52068 -1.28938 -0.65078 2.47482 2.60802 2.81012 2.84622
0.15152 -5.74038 -2.64118 -2.46558 -2.34508 -1.53748 -1.27938 -0.65358 2.44812 2.56572 2.82532 2.83042
0.16162 -5.72678 -2.66898 -2.49378 -2.33368 -1.55508 -1.27008 -0.65678 2.42122 2.52262 2.81372 2.84142
0.17172 -5.71248 -2.69818 -2.52278 -2.32168 -1.57358 -1.26158 -0.66028 2.39432 2.47872 2.79632 2.85812
0.18182 -5.69728 -2.72878 -2.55248 -2.30908 -1.59278 -1.25398 -0.66438 2.36772 2.43442 2.77802 2.87562
0.19192 -5.68148 -2.76068 -2.58298 -2.29568 -1.61288 -1.24738 -0.66888 2.34152 2.38992 2.75912 2.89362
0.20202 -5.66478 -2.79378 -2.61408 -2.28168 -1.63368 -1.24198 -0.67388 2.31602 2.34532 2.73942 2.91222
0.21212 -5.64748 -2.82808 -2.64578 -2.26708 -1.65518 -1.23778 -0.67948 2.29132 2.30072 2.71922 2.93142
0.22222 -5.62958 -2.86348 -2.67808 -2.25178 -1.67728 -1.23498 -0.68568 2.25642 2.26782 2.69832 2.95102
0.23232 -5.61088 -2.89998 -2.71098 -2.23588 -1.69998 -1.23348 -0.69248 2.21262 2.24552 2.67702 2.97102
0.24242 -5.59168 -2.93748 -2.74428 -2.21938 -1.72318 -1.23348 -0.69998 2.16932 2.22462 2.65512 2.99142
0.25253 -5.57178 -2.97588 -2.77808 -2.20228 -1.74698 -1.23498 -0.70828 2.12682 2.20532 2.63282 3.01212
0.26263 -5.55138 -3.01508 -2.81248 -2.18458 -1.77118 -1.23798 -0.71718 2.08512 2.18762 2.61012 3.03312
0.27273 -5.53048 -3.05508 -2.84728 -2.16628 -1.79578 -1.24258 -0.72698 2.04442 2.17182 2.58712 3.05432
0.28283 -5.50908 -3.09588 -2.88248 -2.14748 -1.82088 -1.24868 -0.73758 2.00492 2.15792 2.56372 3.07572
0.29293 -5.48718 -3.13728 -2.91818 -2.12818 -1.84618 -1.25638 -0.74898 1.96662 2.14602 2.54012 3.09722
0.30303 -5.46498 -3.17918 -2.95428 -2.10838 -1.87188 -1.26558 -0.76128 1.92962 2.13612 2.51632 3.11882
0.31313 -5.44248 -3.22168 -2.99088 -2.08798 -1.89788 -1.27638 -0.77448 1.89412 2.12842 2.49232 3.14052
0.32323 -5.41958 -3.26458 -3.02778 -2.06718 -1.92398 -1.28858 -0.78848 1.86012 2.12272 2.46822 3.16222
0.33333 -5.39658 -3.30788 -3.06518 -2.04588 -1.95038 -1.30218 -0.80338 1.82782 2.11922 2.44402 3.18392
0.34343 -5.37328 -3.35138 -3.10298 -2.02408 -1.97698 -1.31718 -0.81918 1.79712 2.11792 2.41972 3.20552
0.35354 -5.35008 -3.39518 -3.14128 -2.00358 -2.00198 -1.33338 -0.83588 1.76822 2.11862 2.39552 3.22702
0.36364 -5.32678 -3.43908 -3.17988 -2.03038 -1.97938 -1.35078 -0.85328 1.74112 2.12142 2.37132 3.24842
0.37374 -5.30348 -3.48298 -3.21888 -2.05718 -1.95648 -1.36928 -0.87158 1.71592 2.12632 2.34712 3.26962
0.38384 -5.28048 -3.52678 -3.25838 -2.08398 -1.93318 -1.38888 -0.89058 1.69262 2.13322 2.32312 3.29072
0.39394 -5.25778 -3.57048 -3.29818 -2.11088 -1.90948 -1.40928 -0.91028 1.67112 2.14192 2.29922 3.31152
0.40404 -5.23538 -3.61398 -3.33838 -2.13768 -1.88558 -1.43048 -0.93058 1.65152 2.15262 2.27552 3.33212
0.41414 -5.21358 -3.65698 -3.37898 -2.16448 -1.86128 -1.45238 -0.95148 1.63392 2.16502 2.25202 3.35242
0.42424 -5.19248 -3.69948 -3.41988 -2.19118 -1.83678 -1.47478 -0.97278 1.61812 2.17912 2.22882 3.37242
0.43434 -5.17208 -3.74138 -3.46118 -2.21778 -1.81208 -1.49778 -0.99448 1.60422 2.19482 2.20582 3.39212
0.44444 -5.15278 -3.78238 -3.50278 -2.24428 -1.78708 -1.52108 -1.01648 1.59222 2.18322 2.21202 3.41152
0.45455 -5.13468 -3.82248 -3.54478 -2.27058 -1.76198 -1.54478 -1.03858 1.58192 2.16092 2.23072 3.43062
0.46465 -5.11798 -3.86138 -3.58698 -2.29678 -1.73668 -1.56858 -1.06078 1.57342 2.13902 2.25072 3.44932
0.47475 -5.10278 -3.89888 -3.62948 -2.32268 -1.71128 -1.59258 -1.08288 1.56672 2.11752 2.27202 3.46762
0.48485 -5.08958 -3.93488 -3.67218 -2.34848 -1.68578 -1.61648 -1.10488 1.56162 2.09642 2.29442 3.48552
0.49495 -5.07848 -3.96908 -3.71518 -2.37398 -1.66018 -1.64048 -1.12648 1.55802 2.07582 2.31782 3.50312
0.50505 -5.06968 -4.00118 -3.75828 -2.39928 -1.66428 -1.63458 -1.14768 1.55612 2.05572 2.34232 3.52022
0.51515 -5.06358 -4.03108 -3.80158 -2.42428 -1.68788 -1.60898 -1.16838 1.55562 2.03612 2.36762 3.53692
0.52525 -5.06038 -4.05848 -3.84498 -2.44898 -1.71118 -1.58338 -1.18838 1.55652 2.01702 2.39372 3.55322
0.53535 -5.06018 -4.08318 -3.88848 -2.47328 -1.73428 -1.55788 -1.20758 1.55882 1.99842 2.42052 3.56902
0.54545 -5.06338 -4.10508 -3.93208 -2.49738 -1.75688 -1.53238 -1.22588 1.56242 1.98042 2.44792 3.58442
0.55556 -5.06988 -4.12418 -3.97558 -2.52108 -1.77918 -1.50708 -1.24328 1.56722 1.96302 2.47592 3.59942
0.56566 -5.07978 -4.14028 -4.01908 -2.54448 -1.80108 -1.48188 -1.25948 1.57322 1.94622 2.50432 3.61392
0.57576 -5.09308 -4.15368 -4.06248 -2.56748 -1.82248 -1.45688 -1.27448 1.58032 1.93002 2.53312 3.62802
0.58586 -5.10968 -4.16428 -4.10578 -2.59018 -1.84328 -1.43208 -1.28818 1.58842 1.91452 2.56222 3.64172
0.59596 -5.12928 -4.17238 -4.14888 -2.61238 -1.86368 -1.40758 -1.30058 1.59752 1.89962 2.59152 3.65492
0.60606 -5.15168 -4.19178 -4.17828 -2.63418 -1.88348 -1.38328 -1.31148 1.60762 1.88532 2.62102 3.66772
0.61616 -5.17678 -4.23438 -4.18228 -2.65558 -1.90268 -1.35928 -1.32088 1.61842 1.87172 2.65052 3.68002
0.62626 -5.20398 -4.27668 -4.18458 -2.67658 -1.92138 -1.33568 -1.32868 1.63012 1.85882 2.68002 3.69192
0.63636 -5.23318 -4.31858 -4.18548 -2.69718 -1.93948 -1.33498 -1.31248 1.64252 1.84662 2.70942 3.70342
0.64646 -5.26398 -4.36008 -4.18528 -2.71718 -1.95698 -1.33958 -1.28958 1.65572 1.83502 2.73872 3.71452
0.65657 -5.29618 -4.40108 -4.18428 -2.73688 -1.97388 -1.34258 -1.26718 1.66942 1.82412 2.76782 3.72512
0.66667 -5.32948 -4.44158 -4.18278 -2.75598 -1.99018 -1.34388 -1.24518 1.68382 1.81392 2.79672 3.73532
0.67677 -5.36368 -4.48148 -4.18078 -2.77468 -2.00588 -1.34368 -1.22368 1.69872 1.80432 2.82512 3.74512
0.68687 -5.39838 -4.52078 -4.17858 -2.79288 -2.02098 -1.34178 -1.20268 1.71412 1.79542 2.85322 3.75452
0.69697 -5.43358 -4.55938 -4.17638 -2.81058 -2.03548 -1.33838 -1.18228 1.73002 1.78722 2.88082 3.76362
0.70707 -5.46898 -4.59728 -4.17418 -2.82768 -2.04938 -1.33358 -1.16228 1.74622 1.77962 2.90802 3.77222
0.71717 -5.50448 -4.63448 -4.17218 -2.84438 -2.06268 -1.32718 -1.14298 1.76282 1.77262 2.93452 3.78042
0.72727 -5.53988 -4.67078 -4.17038 -2.86048 -2.07548 -1.31948 -1.12428 1.76622 1.77972 2.96052 3.78832
0.73737 -5.57498 -4.70618 -4.16888 -2.87608 -2.08758 -1.31058 -1.10608 1.76052 1.79692 2.98572 3.79582
0.74747 -5.60978 -4.74078 -4.16758 -2.89118 -2.09928 -1.30038 -1.08858 1.75532 1.81432 3.01032 3.80292
0.75758 -5.64408 -4.77428 -4.16668 -2.90568 -2.11028 -1.28918 -1.07168 1.75072 1.83182 3.03412 3.80972
0.76768 -5.67778 -4.80688 -4.16618 -2.91968 -2.12078 -1.27708 -1.05548 1.74662 1.84942 3.05712 3.81612
0.77778 -5.71078 -4.83838 -4.16588 -2.93308 -2.13078 -1.26408 -1.03988 1.74302 1.86712 3.07932 3.82232
0.78788 -5.74298 -4.86888 -4.16598 -2.94598 -2.14028 -1.25038 -1.02508 1.73982 1.88482 3.10062 3.82802
0.79798 -5.77428 -4.89818 -4.16638 -2.95828 -2.14918 -1.23608 -1.01088 1.73722 1.90252 3.12112 3.83352
0.80808 -5.80458 -4.92638 -4.16708 -2.96998 -2.15758 -1.22138 -0.99738 1.73492 1.92002 3.14062 3.83862
0.81818 -5.83388 -4.95328 -4.16798 -2.98118 -2.16548 -1.20638 -0.98448 1.73302 1.93742 3.15922 3.84342
0.82828 -5.86198 -4.97898 -4.16908 -2.99168 -2.17298 -1.19118 -0.97238 1.73152 1.95452 3.17682 3.84792
0.83838 -5.88898 -5.00348 -4.17038 -3.00168 -2.17988 -1.17598 -0.96098 1.73032 1.97132 3.19352 3.85222
0.84848 -5.91458 -5.02658 -4.17188 -3.01108 -2.18638 -1.16078 -0.95028 1.72932 1.98772 3.20912 3.85612
0.85859 -5.93898 -5.04838 -4.17338 -3.01988 -2.19248 -1.14598 -0.94028 1.72872 2.00362 3.22382 3.85982
0.86869 -5.96188 -5.06878 -4.17498 -3.02808 -2.19798 -1.13148 -0.93098 1.72822 2.01902 3.23742 3.86312
0.87879 -5.98328 -5.08778 -4.17668 -3.03578 -2.20318 -1.11748 -0.92238 1.72792 2.03382 3.25002 3.86622
0.88889 -6.00328 -5.10548 -4.17838 -3.04278 -2.20778 -1.10408 -0.91448 1.72782 2.04782 3.26172 3.86912
0.89899 -6.02168 -5.12158 -4.17998 -3.04918 -2.21208 -1.09138 -0.90728 1.72782 2.06102 3.27222 3.87162
0.90909 -6.03848 -5.13628 -4.18158 -3.05498 -2.21588 -1.07958 -0.90078 1.72792 2.07332 3.28182 3.87402
0.91919 -6.05358 -5.14948 -4.18298 -3.06018 -2.21928 -1.06878 -0.89498 1.72812 2.08472 3.29042 3.87602
0.92929 -6.06698 -5.16118 -4.18438 -3.06478 -2.22228 -1.05898 -0.88988 1.72832 2.09492 3.29792 3.87782
0.93939 -6.07878 -5.17128 -4.18558 -3.06878 -2.22488 -1.05028 -0.88548 1.72862 2.10402 3.30442 3.87942
0.94949 -6.08868 -5.17998 -4.18668 -3.07218 -2.22708 -1.04288 -0.88168 1.72882 2.11182 3.31002 3.88072
0.95960 -6.09688 -5.18698 -4.18758 -3.07498 -2.22888 -1.03668 -0.87868 1.72902 2.11832 3.31452 3.88182
0.96970 -6.10328 -5.19258 -4.18828 -3.07708 -2.23028 -1.03178 -0.87628 1.72922 2.12342 3.31802 3.88262
0.97980 -6.10788 -5.19648 -4.18888 -3.07868 -2.23128 -1.02828 -0.87458 1.72932 2.12712 3.32052 3.88322
0.98990 -6.11058 -5.19888 -4.18918 -3.07958 -2.23188 -1.02618 -0.87358 1.72942 2.12942 3.32202 3.88362
1.00000 -6.11158 -5.19968 -4.18928 -3.07988 -2.23208 -1.02548 -0.87328 1.72952 2.13012 3.32252 3.88372
